 -59.73
 -56.75
 -53.76
 -50.78
 -47.76
 -44.73
 -41.71
 -38.69
 -35.72
 -32.76
 -29.79
 -26.82
 -23.86
 -20.88
 -17.91
 -14.94
 -11.97
  -9.00
  -6.11
  -3.21
  -0.32
   2.58
   5.47
   8.37
  11.44
  14.52
  17.59
  20.67
  23.74
  26.73
  29.72
  32.71
  35.70
  38.69
  41.70
  44.71
  47.72
  50.72
  53.77
  56.82
  59.87
