 -60.45
 -57.40
 -54.35
 -51.29
 -48.30
 -45.30
 -42.31
 -39.31
 -36.32
 -33.27
 -30.22
 -27.16
 -24.11
 -21.06
 -18.01
 -15.02
 -12.04
  -9.05
  -6.06
  -3.08
  -0.09
   3.32
   6.21
   9.11
  12.01
  14.90
  17.81
  20.71
  23.66
  26.61
  29.56
  32.50
  35.46
  38.48
  41.50
  44.53
  47.57
  50.58
  53.57
  56.56
  59.55
