 -59.16
 -56.25
 -53.34
 -50.42
 -47.45
 -44.47
 -41.49
 -38.51
 -35.50
 -32.49
 -29.48
 -26.48
 -23.47
 -20.57
 -17.68
 -14.79
 -11.89
  -9.00
  -6.03
  -3.06
  -0.09
   2.88
   5.85
   8.82
  11.90
  14.98
  18.05
  21.13
  24.21
  27.20
  30.18
  33.17
  36.15
  39.14
  42.14
  45.14
  48.14
  51.14
  54.25
  57.36
  60.46
